freq,psd_x,psd_y,psd_z,psd_xyz
0.0,2.212e+01,3.253e+01,2.341e+02,2.887e+02
1.5,3.861e+01,6.780e+01,1.689e+02,2.753e+02
3.1,3.659e+01,6.447e+01,6.076e+01,1.618e+02
4.6,3.558e+01,5.564e+01,3.772e+02,4.684e+02
6.2,3.168e+01,6.089e+01,1.278e+03,1.371e+03
7.7,3.089e+01,6.640e+01,2.062e+03,2.160e+03
9.3,3.109e+01,5.685e+01,2.986e+03,3.074e+03
10.8,3.479e+01,6.365e+01,4.064e+03,4.162e+03
12.3,3.709e+01,6.028e+01,5.441e+03,5.538e+03
13.9,3.719e+01,6.806e+01,7.138e+03,7.243e+03
15.4,3.717e+01,6.803e+01,9.282e+03,9.387e+03
17.0,3.836e+01,7.472e+01,1.191e+04,1.202e+04
18.5,4.335e+01,9.140e+01,1.421e+04,1.435e+04
20.0,4.685e+01,9.554e+01,1.601e+04,1.615e+04
21.6,4.717e+01,8.312e+01,1.849e+04,1.862e+04
23.1,6.367e+01,1.051e+02,2.236e+04,2.253e+04
24.7,7.124e+01,1.330e+02,2.646e+04,2.666e+04
26.2,6.186e+01,1.460e+02,3.210e+04,3.231e+04
27.8,7.958e+01,1.687e+02,3.670e+04,3.695e+04
29.3,1.146e+02,2.394e+02,3.981e+04,4.016e+04
30.8,1.965e+02,3.865e+02,4.658e+04,4.716e+04
32.4,3.656e+02,7.093e+02,5.850e+04,5.958e+04
33.9,6.241e+02,1.327e+03,7.509e+04,7.704e+04
35.5,1.123e+03,1.974e+03,9.463e+04,9.772e+04
37.0,2.094e+03,2.897e+03,1.227e+05,1.277e+05
38.5,3.281e+03,4.178e+03,1.558e+05,1.632e+05
40.1,4.188e+03,5.269e+03,1.859e+05,1.953e+05
41.6,5.000e+03,7.338e+03,2.500e+05,2.623e+05
43.2,6.751e+03,1.035e+04,3.216e+05,3.387e+05
44.7,1.058e+04,1.316e+04,3.615e+05,3.853e+05
46.3,1.732e+04,1.820e+04,4.326e+05,4.681e+05
47.8,2.110e+04,2.326e+04,5.019e+05,5.462e+05
49.3,1.812e+04,2.192e+04,4.848e+05,5.248e+05
50.9,1.470e+04,1.964e+04,3.838e+05,4.182e+05
52.4,1.362e+04,2.142e+04,2.822e+05,3.173e+05
54.0,1.691e+04,2.711e+04,2.337e+05,2.777e+05
55.5,1.658e+04,2.644e+04,1.791e+05,2.221e+05
57.0,1.239e+04,1.980e+04,1.183e+05,1.505e+05
58.6,7.767e+03,1.288e+04,8.074e+04,1.014e+05
60.1,6.229e+03,1.051e+04,6.490e+04,8.164e+04
61.7,6.445e+03,1.034e+04,5.409e+04,7.087e+04
63.2,6.808e+03,9.679e+03,4.719e+04,6.368e+04
64.8,6.893e+03,9.021e+03,4.217e+04,5.809e+04
66.3,7.330e+03,9.774e+03,3.580e+04,5.290e+04
67.8,6.461e+03,8.189e+03,3.097e+04,4.562e+04
69.4,6.422e+03,8.456e+03,2.962e+04,4.450e+04
70.9,7.551e+03,1.115e+04,2.889e+04,4.759e+04
72.5,8.157e+03,1.180e+04,2.890e+04,4.885e+04
74.0,7.474e+03,1.036e+04,2.772e+04,4.555e+04
75.5,6.487e+03,9.223e+03,2.606e+04,4.177e+04
77.1,5.962e+03,8.654e+03,2.375e+04,3.837e+04
78.6,5.252e+03,7.937e+03,2.258e+04,3.577e+04
80.2,5.055e+03,9.620e+03,2.452e+04,3.919e+04
81.7,6.846e+03,1.518e+04,2.467e+04,4.669e+04
83.3,9.837e+03,2.180e+04,2.048e+04,5.212e+04
84.8,1.349e+04,2.882e+04,1.753e+04,5.984e+04
86.3,1.662e+04,3.484e+04,1.791e+04,6.936e+04
87.9,1.705e+04,3.649e+04,1.701e+04,7.055e+04
89.4,1.577e+04,3.382e+04,1.509e+04,6.467e+04
91.0,1.474e+04,2.942e+04,1.447e+04,5.862e+04
92.5,1.375e+04,2.306e+04,1.529e+04,5.209e+04
94.0,1.348e+04,1.900e+04,1.575e+04,4.823e+04
95.6,1.264e+04,1.987e+04,1.584e+04,4.834e+04
97.1,1.064e+04,2.271e+04,1.561e+04,4.897e+04
98.7,9.420e+03,2.460e+04,1.550e+04,4.952e+04
100.2,9.276e+03,2.596e+04,1.664e+04,5.188e+04
101.8,9.460e+03,2.950e+04,1.846e+04,5.743e+04
103.3,1.007e+04,3.396e+04,1.939e+04,6.342e+04
104.8,9.873e+03,3.537e+04,1.940e+04,6.465e+04
106.4,9.888e+03,3.707e+04,2.026e+04,6.723e+04
107.9,1.038e+04,3.920e+04,2.238e+04,7.196e+04
109.5,1.086e+04,4.100e+04,2.350e+04,7.537e+04
111.0,1.143e+04,4.197e+04,2.332e+04,7.672e+04
112.5,1.251e+04,4.317e+04,2.243e+04,7.810e+04
114.1,1.461e+04,4.447e+04,2.278e+04,8.186e+04
115.6,1.606e+04,4.252e+04,2.143e+04,8.001e+04
117.2,1.641e+04,3.998e+04,2.012e+04,7.651e+04
118.7,1.677e+04,3.953e+04,1.902e+04,7.532e+04
120.3,1.821e+04,3.910e+04,1.914e+04,7.645e+04
121.8,1.991e+04,3.756e+04,2.022e+04,7.769e+04
123.3,2.385e+04,3.755e+04,2.432e+04,8.572e+04
124.9,3.562e+04,4.801e+04,4.582e+04,1.295e+05
126.4,8.931e+04,1.011e+05,2.066e+05,3.970e+05
128.0,1.543e+05,1.532e+05,4.252e+05,7.327e+05
129.5,1.700e+05,1.496e+05,4.739e+05,7.935e+05
131.0,1.679e+05,1.332e+05,4.621e+05,7.632e+05
132.6,1.123e+05,8.294e+04,3.053e+05,5.004e+05
134.1,2.699e+04,2.328e+04,8.357e+04,1.338e+05
135.7,1.455e+04,1.448e+04,5.207e+04,8.110e+04
137.2,1.479e+04,1.359e+04,5.425e+04,8.263e+04
138.8,1.556e+04,1.352e+04,5.883e+04,8.791e+04
140.3,1.609e+04,1.319e+04,6.462e+04,9.390e+04
141.8,1.524e+04,1.184e+04,6.666e+04,9.374e+04
143.4,1.450e+04,1.075e+04,6.714e+04,9.240e+04
144.9,1.357e+04,9.085e+03,6.411e+04,8.676e+04
146.5,1.379e+04,8.166e+03,6.678e+04,8.874e+04
148.0,1.165e+04,6.699e+03,5.804e+04,7.639e+04
149.5,8.607e+03,5.222e+03,4.356e+04,5.739e+04
151.1,7.046e+03,4.785e+03,3.233e+04,4.417e+04
152.6,6.413e+03,4.560e+03,2.461e+04,3.559e+04
154.2,6.653e+03,4.496e+03,2.143e+04,3.258e+04
155.7,7.180e+03,4.419e+03,2.084e+04,3.243e+04
157.3,7.450e+03,4.347e+03,2.153e+04,3.333e+04
158.8,7.896e+03,4.253e+03,2.232e+04,3.447e+04
160.3,8.080e+03,4.393e+03,2.188e+04,3.435e+04
161.9,8.685e+03,4.775e+03,2.290e+04,3.636e+04
163.4,9.435e+03,5.028e+03,2.476e+04,3.923e+04
165.0,1.014e+04,4.879e+03,2.711e+04,4.214e+04
166.5,1.049e+04,4.410e+03,2.833e+04,4.323e+04
168.0,9.610e+03,3.716e+03,2.649e+04,3.981e+04
169.6,9.125e+03,3.135e+03,2.509e+04,3.735e+04
171.1,9.851e+03,2.802e+03,2.721e+04,3.986e+04
172.7,1.051e+04,2.256e+03,3.010e+04,4.286e+04
174.2,9.832e+03,1.742e+03,2.871e+04,4.028e+04
175.8,8.615e+03,1.485e+03,2.538e+04,3.548e+04
177.3,6.925e+03,1.336e+03,2.037e+04,2.864e+04
178.8,5.894e+03,1.208e+03,1.732e+04,2.442e+04
180.4,5.791e+03,1.148e+03,1.715e+04,2.409e+04
181.9,5.862e+03,1.090e+03,1.764e+04,2.459e+04
183.5,5.943e+03,1.059e+03,1.791e+04,2.491e+04
185.0,5.708e+03,1.013e+03,1.717e+04,2.389e+04
186.5,5.573e+03,9.794e+02,1.707e+04,2.362e+04
188.1,5.483e+03,8.995e+02,1.721e+04,2.359e+04
189.6,5.645e+03,8.134e+02,1.799e+04,2.445e+04
191.2,6.151e+03,6.464e+02,1.963e+04,2.643e+04
192.7,6.689e+03,5.169e+02,2.142e+04,2.862e+04
194.3,7.426e+03,5.799e+02,2.415e+04,3.216e+04
195.8,7.537e+03,5.845e+02,2.419e+04,3.231e+04
197.3,6.289e+03,6.451e+02,1.970e+04,2.663e+04
198.9,6.131e+03,7.413e+02,1.980e+04,2.667e+04
